Time/s	Absorbance (460 nm)
10.393	0.00356
21.269	0.00392
31.285	0.00432
41.391	0.00474
53.869	0.00522
64.891	0.0056
75.626	0.00589
86.499	0.00608
97.052	0.0061
107.09	0.00588
117.89	0.00538
128.5	0.00475
138.58	0.00423
149.11	0.00393
159.95	0.00388
170.98	0.00404
181.76	0.00432
192.87	0.00468
205.45	0.00513
215.59	0.00549
225.61	0.00584
236.47	0.00621
246.47	0.00651
257.29	0.00677
267.49	0.00688
278.09	0.00671
288.96	0.00605
299.71	0.005
310.33	0.00408
321.1	0.00358
331.19	0.00351
341.71	0.00369
352.61	0.00404
362.89	0.00444
373.17	0.00486
383.89	0.00529
394.55	0.00569
405.58	0.00607
415.76	0.00636
426.27	0.00657
436.63	0.00661
447.48	0.00632
457.67	0.00566
467.94	0.00477
478.07	0.00405
488.51	0.00367
499.29	0.00363
509.6	0.00382
520.06	0.00415
531.43	0.00457
542.52	0.00501
554.13	0.00547
564.31	0.00585
575.03	0.00622
585.82	0.00656
596.54	0.00682
606.75	0.00693
617.44	0.00673
627.78	0.00605
637.98	0.00503
648.07	0.00411
658.23	0.00359
668.43	0.00348
679.13	0.00364
689.22	0.00396
700.13	0.00437
712.41	0.00487
723.17	0.0053
734.01	0.00569
744.29	0.00603
755.24	0.00631
766.02	0.00645
776.26	0.00638
787.21	0.00596
798.22	0.00518
808.37	0.00442
818.55	0.0039
829.45	0.00369
840.3	0.00378
851.04	0.00404
862.49	0.00443
875.26	0.00492
885.75	0.00533
895.93	0.00572
906.37	0.0061
916.57	0.00645
926.98	0.00679
937.31	0.00706
947.83	0.00719
957.97	0.00703
968.26	0.00634
979.05	0.00512
989.6	0.00403
999.91	0.00347
1010.3	0.00337
1021.1	0.00357
1031.8	0.00394
1042.6	0.00437
1055	0.00487
1066.3	0.0053
1076.4	0.00564
1087	0.00592
1098.1	0.0061
1109.3	0.00608
1119.3	0.00582
1130.5	0.00526
1141.3	0.00461
1151.6	0.00412
1162.6	0.00388
1173.2	0.0039
1184.2	0.0041
1195.4	0.00442
1207.6	0.00483
1219.5	0.00526
1229.7	0.00563
1240	0.00598
1250.2	0.00631
1260.8	0.00662
1270.8	0.00683
1281.5	0.00688
1292	0.00658
1302	0.00584
1312.2	0.00483
1322.2	0.00399
1332.5	0.00356
1343	0.00351
1353.3	0.00371
1364.2	0.00407
1374.7	0.00448
1385.1	0.00491
1395.5	0.00532
1405.9	0.00571
1416.8	0.00608
1427.1	0.00637
1437.8	0.00657
1448.8	0.00656
1460.2	0.00616
1470.9	0.00538
1481.7	0.00448
1492.4	0.00386
1502.8	0.00363
1513	0.00369
1524.1	0.00395
1534.5	0.00431
1545.7	0.00474
1556.9	0.00518
1566.9	0.00557
1577.4	0.00596
1587.5	0.00631
1598	0.00663
1608.4	0.00688
1618.5	0.00697
1629.2	0.00675
1640.1	0.00597
1650.8	0.00486
1661.3	0.00395
1671.9	0.00351
1682	0.00347
1692.1	0.00368
1702.6	0.00403
1714.6	0.0045
1725.2	0.00493
1735.6	0.00534
1746.2	0.00572
1756.5	0.00604
1766.7	0.00628
1776.9	0.0064
1788.1	0.00627
1799.2	0.00578
1810	0.00501
1820.2	0.00431
1830.4	0.00386
1840.6	0.00372
1850.8	0.00382
1861.8	0.00409
1873.8	0.0045
1884.3	0.00489
1895.1	0.00531
1905.5	0.0057
1916.1	0.00609
1926.3	0.00645
1936.7	0.00678
1946.9	0.00706
1957.2	0.00723
1967.5	0.00712
1977.8	0.00651
1987.9	0.0054
1998.4	0.00421
2008.7	0.00353
2018.7	0.00335
2029.5	0.00349
2040.4	0.00384
2051.7	0.00428
2062.8	0.00474
2074.6	0.00519
2085.9	0.00558
2097.1	0.00588
2107.2	0.00605
2118.6	0.00605
2129	0.00581
2139.2	0.00533
2149.3	0.00474
2160	0.00421
2170.1	0.00394
2180.6	0.0039
2191.1	0.00404
2201.2	0.00429
2213.7	0.00469
2225.8	0.00512
2236.4	0.00549
2246.5	0.00584
2256.6	0.00617
2267	0.00648
2277.5	0.00671
2288.5	0.0068
2299	0.00657
2309.8	0.00587
2320.5	0.00487
2330.9	0.00403
2341.5	0.0036
2351.6	0.00355
2362.2	0.00374
2373.3	0.00411
2384.2	0.00453
2394.9	0.00496
2406.8	0.00543
2417.3	0.00583
2428.2	0.0062
2438.5	0.00651
2449.1	0.00673
2459.5	0.00678
2470.6	0.00645
2480.9	0.0057
2491.3	0.00471
2501.5	0.00394
2512.1	0.00357
2522.2	0.00356
2533	0.00379
2543.3	0.00413
2554.4	0.00456
2565.4	0.005
2577.1	0.00546
2587.5	0.00584
2597.7	0.00617
2608.5	0.00647
2618.9	0.00664
2630	0.00658
2641.1	0.00612
2651.2	0.00532
2661.7	0.00443
2672.2	0.00382
2682.4	0.0036
2692.4	0.00367
2703.4	0.00394
2713.7	0.00429
2724.6	0.00472
2735.8	0.00516
2746	0.00556
2756.6	0.00595
2766.9	0.0063
2777.5	0.00662
2788.3	0.00685
2799.3	0.00688
2810	0.00652
2820.6	0.00566
2831.2	0.00459
2841.8	0.00381
2851.9	0.00351
2862.6	0.00354
2873.6	0.00381
2884.3	0.0042
2896.6	0.00469
2907.9	0.00514
2918.5	0.00555
2929.8	0.00593
2939.9	0.00623
2950.2	0.00644
2961.4	0.00649
2971.7	0.00624
2982.6	0.00559
2993.3	0.00474
3003.7	0.00407
3014.4	0.00372
3024.6	0.00369
3035.2	0.00388
3046	0.00421
3058	0.00465
3069.3	0.00509
3080.2	0.00552
3091.2	0.00593
3101.3	0.00629
3111.6	0.00663
3121.6	0.00692
3132.1	0.00712
3142.3	0.0071
3153	0.00661
3163.8	0.00554
3174.1	0.00439
3184.3	0.00365
3194.7	0.00339
3205.5	0.00349
3216.3	0.0038
3227	0.00421
3237.2	0.00463
3248.6	0.00509
3260.5	0.00552
3271.7	0.00586
3282.4	0.00609
3293.4	0.00618
3304	0.00603
3314.7	0.00558
3325.2	0.00494
3336	0.00432
3346.9	0.00393
3357.9	0.00384
3369.1	0.00398
3380.3	0.00426
3392.5	0.00467
3404.3	0.0051
3414.7	0.00548
3425.9	0.00588
3436.6	0.00624
3447.3	0.00658
3457.7	0.00685
3468.2	0.007
3479	0.00686
3489.3	0.00627
3499.4	0.00526
3510.2	0.00419
3520.8	0.00359
3531.4	0.00345
3541.8	0.0036
3552.7	0.00394
3563.5	0.00436
3575.6	0.00486
3586.4	0.00529
3597.4	0.00569
3607.9	0.00602
3618	0.00627
3628	0.0064
3638.6	0.00633
3649.9	0.0059
3659.9	0.00521
3670.3	0.00445
3680.6	0.00393
3690.7	0.00372
3701.6	0.00378
3712.1	0.00402
3723.1	0.00438
3735.1	0.00483
3746.2	0.00526
3757.2	0.00567
3767.9	0.00607
3778.3	0.00643
3788.7	0.00677
3799.1	0.00705
3809.4	0.00721
3820	0.00708
3830.4	0.00643
3840.4	0.00531
3851	0.00415
3861.3	0.00351
3871.5	0.00336
3881.7	0.00351
3892.9	0.00386
3904.5	0.00432
3916.3	0.00481
3927.9	0.00525
3938.5	0.00561
3949.4	0.0059
3960.7	0.00608
3972.1	0.00606
3982.2	0.0058
3993.4	0.00523
4004.2	0.00459
4014.6	0.00412
4024.6	0.0039
4035.1	0.0039
4046.1	0.00409
4057	0.00439
4068.7	0.00478
4080.8	0.00521
4091.6	0.0056
4102.1	0.00596
4112.5	0.0063
4123.3	0.0066
4133.4	0.00681
4143.5	0.00684
4154.2	0.00653
4164.3	0.00579
4174.6	0.00478
4184.7	0.00397
4195.1	0.00356
4205.8	0.00353
4216.5	0.00376
4228	0.00415
4239.5	0.0046
4250.5	0.00505
4261.7	0.00549
4271.9	0.00586
4282.9	0.00622
4293.4	0.0065
4303.8	0.00666
4315	0.00658
4326	0.00608
4336.8	0.00519
4347.1	0.00432
4357.4	0.00377
4367.6	0.00359
4377.8	0.00368
4387.8	0.00394
4398.2	0.00431
4409.3	0.00474
4420.5	0.00518
4430.5	0.00557
4441	0.00596
4451.3	0.0063
4462	0.00661
4472.3	0.00681
4482.6	0.00682
4493.7	0.00644
4504.3	0.00557
4515.1	0.00452
4525.8	0.00379
4536.1	0.00352
4546.3	0.00357
4556.5	0.00382
4567.2	0.0042
4579.5	0.00469
4590.8	0.00514
4601.3	0.00555
4612.4	0.00594
4623.3	0.00626
4634.2	0.0065
4644.8	0.00657
4655.6	0.00633
4666.3	0.0057
4676.8	0.00483
4687.1	0.0041
4697.6	0.0037
4708.3	0.00365
4718.5	0.00382
4728.8	0.00413
4739.7	0.00453
4750.5	0.00496
4760.6	0.00535
4771.8	0.00578
4781.9	0.00614
4792.1	0.00648
4802.7	0.00679
4812.9	0.007
4823.3	0.007
4833.5	0.00661
4844.2	0.00566
4854.3	0.00457
4864.4	0.00379
4874.6	0.00345
4884.8	0.00348
4895.1	0.00373
4906.4	0.00413
4917.8	0.00459
4928.9	0.00504
4940.8	0.00549
4951.7	0.00585
4962.8	0.00614
4973.5	0.0063
4984.6	0.00625
4995	0.00591
5005.9	0.00523
5016.7	0.00449
5027.4	0.00397
5037.8	0.00377
5047.9	0.00382
5058.5	0.00404
5069.5	0.00439
5081.5	0.00482
5092.8	0.00525
5104	0.00567
5114.9	0.00607
5125.3	0.00643
5135.8	0.00677
5146.1	0.00704
5156.4	0.0072
5167	0.00708
5177.4	0.00644
5187.5	0.00532
5198.1	0.00416
5208.5	0.00352
5218.7	0.00336
5229	0.00351
5239	0.00383
5250.2	0.00426
5261	0.00471
5272.8	0.00517
5284.1	0.00556
5295.2	0.00588
5306.4	0.00608
5317.2	0.0061
5329.2	0.00582
5340.4	0.00525
5351.2	0.00461
5361.6	0.00413
5371.6	0.0039
5382.1	0.00389
5392.9	0.00407
5403.7	0.00437
5414.9	0.00474
5427.1	0.00518
5438.2	0.00558
5448.9	0.00595
5459.3	0.00629
5470.1	0.0066
5480.2	0.00681
5491	0.00686
5501.6	0.00656
5511.7	0.00582
5521.9	0.00481
5532	0.00398
5542.3	0.00356
5552.9	0.00352
5563.4	0.00373
5574.5	0.0041
5585.4	0.00453
5596.2	0.00497
5608.1	0.00544
5618.7	0.00583
5628.9	0.00617
5639.7	0.00646
5650.3	0.00662
5660.3	0.00658
5671.5	0.00613
5681.8	0.00534
5692.4	0.00445
5703	0.00383
5713.2	0.00361
5723.3	0.00367
5734.3	0.00394
5744.6	0.0043
5755.6	0.00472
5766.8	0.00517
5777	0.00556
5787.6	0.00595
5797.8	0.0063
5808.4	0.00662
5819.2	0.00685
5830	0.00689
5840.5	0.00656
5851.2	0.00572
5861.9	0.00464
5872.5	0.00384
5882.5	0.00351
5893.1	0.00353
5903.9	0.00378
5914.2	0.00414
5925.7	0.0046
5936.8	0.00505
5948.3	0.00549
5958.7	0.00586
5969.2	0.00617
5979.7	0.0064
5990.7	0.00648
6002.2	0.00625
6013.3	0.0056
6024.1	0.00476
6034.6	0.00408
6045.3	0.00372
6055.5	0.00369
6066.2	0.00388
6077	0.00421
6089.1	0.00466
6100.5	0.0051
6111.3	0.00552
6122.2	0.00593
6132.4	0.00629
6142.6	0.00663
6153.3	0.00694
6163.7	0.00714
6173.8	0.00711
6184.5	0.00662
6195.2	0.00554
6205.4	0.00439
6215.5	0.00365
6225.8	0.00338
6236.6	0.00347
6247.2	0.00378
6257.7	0.00418
6269.9	0.00468
6281.5	0.00514
6292.9	0.00555
6304	0.00587
6314.8	0.00609
6326.3	0.00615
6337.6	0.00593
6347.8	0.00546
6357.9	0.00483
6368.6	0.00425
6379.5	0.00391
6389.6	0.00385
6399.7	0.00398
6410.9	0.00426
6422.9	0.00465
6434.7	0.00507
6445.8	0.00548
6456.8	0.00587
6467.6	0.00623
6478.3	0.00657
6489	0.00683
6499.8	0.00696
6510	0.0068
6520.4	0.00617
6530.6	0.00515
6540.7	0.00419
6550.8	0.00362
6561.5	0.00346
6572	0.00361
6583	0.00395
6594	0.00438
6606.3	0.00488
6616.9	0.0053
6627.6	0.0057
6637.8	0.00603
6648.7	0.00631
6659.4	0.00647
6670.8	0.00638
6681.6	0.00594
6692.4	0.00516
6702.4	0.0044
6712.5	0.00388
6723.3	0.00368
6734.1	0.00377
6744.8	0.00404
6756.2	0.00442
6768.8	0.00491
6779.4	0.00532
6789.6	0.00571
6800.1	0.00609
6810.4	0.00645
6820.9	0.00678
6831.3	0.00704
6842.1	0.00716
6852.9	0.00691
6863	0.00615
6873.7	0.00492
6884.3	0.00392
6894.7	0.00344
6904.8	0.0034
6915	0.00361
6926.2	0.004
6937.9	0.00447
6948.3	0.00489
6959.4	0.00532
6970.9	0.0057
6981	0.00597
6991.6	0.00614
7002.2	0.00614
7013.7	0.00584
7024.5	0.00527
7035	0.00461
7045.3	0.00411
7056.1	0.00386
7066.5	0.00387
7077.3	0.00407
7088.1	0.00437
7099.6	0.00477
7111.6	0.0052
7122.3	0.00559
7132.7	0.00596
7142.9	0.0063
7153.4	0.00662
7163.9	0.00687
7174.8	0.00698
7185.3	0.00675
7195.4	0.00608
7206.2	0.00496
7216.8	0.00401
7227.4	0.00353
7237.5	0.00347
7248.4	0.00368
7259	0.00403
7271.1	0.00451
7281.8	0.00495
7292	0.00535
7302.3	0.00572
7312.5	0.00605
7323.4	0.00632
7334.4	0.00645
7345.2	0.00632
7356.1	0.00583
7366.7	0.00506
7376.7	0.00433
7386.8	0.00386
7396.9	0.0037
7407.8	0.00379
7418.7	0.00407
7430.5	0.00447
7440.8	0.00486
7451.6	0.00528
7462.2	0.00569
7472.9	0.00608
7483.2	0.00644
7493.6	0.00677
7504	0.00705
7514.5	0.00719
7524.6	0.00703
7535	0.00636
7545	0.00523
7555.7	0.0041
7566.1	0.0035
7576.5	0.00337
7587	0.00355
7597.4	0.00389
7607.6	0.00429
7618.8	0.00475
7630.4	0.0052
7641.4	0.00558
7652.3	0.00589
7663.3	0.00609
7673.8	0.00612
7685.5	0.00586
7695.5	0.00538
7705.6	0.00477
7716.2	0.00422
7727.1	0.00391
7737.4	0.00387
7747.8	0.00402
7759.5	0.00432
7770	0.00467
7781.9	0.00509
7792.5	0.00548
7802.6	0.00583
7812.6	0.00617
7822.9	0.00649
7833	0.00675
7843	0.0069
7853.9	0.00681
7864.7	0.00625
7875.4	0.00525
7885.7	0.00426
7896.1	0.00366
7906.3	0.00348
7916.7	0.00361
7927.5	0.00392
7937.9	0.00431
7949.4	0.00478
7960.4	0.00522
7971.7	0.00565
7982	0.006
7992.7	0.00631
8003.6	0.00652
8014.6	0.00654
8024.6	0.00626
8034.9	0.0056
8045.3	0.00474
8055.4	0.00405
8065.9	0.00369
8076.8	0.00366
8087.3	0.00386
8098	0.0042
8110	0.00465
8121.3	0.00509
8132.2	0.00552
8143.1	0.00592
8153.3	0.00628
8163.8	0.00662
8174.1	0.00689
8184.5	0.00703
8195.4	0.00687
8205.4	0.00625
8216.2	0.00514
8226.7	0.00411
8237.2	0.00355
8247.6	0.00344
8258	0.00361
8269	0.00396
8279.9	0.00439
8292.4	0.00489
8303.2	0.00531
8314.1	0.0057
8324.8	0.00602
8335.3	0.00625
8346.4	0.00632
8357.6	0.00612
8368.5	0.00557
8379.1	0.00483
8389.2	0.0042
8399.5	0.00384
8410.1	0.00376
8420.9	0.00392
8431.8	0.00421
8443.5	0.00462
8454.9	0.00505
8466.6	0.00549
8476.6	0.00586
8487.2	0.00624
8497.6	0.00659
8508.3	0.00692
8518.4	0.00715
8528.5	0.00721
8539.5	0.00686
8549.8	0.00595
8560	0.00472
8570.2	0.0038
8580.3	0.0034
8591	0.0034
8601.5	0.00365
8611.9	0.00403
8622	0.00444
8632.2	0.00486
8643.6	0.00529
8653.9	0.00563
8664.7	0.00591
8676	0.00609
8687.5	0.00605
8697.7	0.00576
8708.6	0.0052
8719.3	0.00457
8729.7	0.00411
8739.7	0.00389
8750.3	0.00391
8761.3	0.0041
8772.5	0.00442
8784.7	0.00483
8796.7	0.00526
8807	0.00562
8817.3	0.00598
8827.6	0.00631
8838.3	0.00661
8848.5	0.00681
8858.7	0.00683
8869.5	0.00649
8880.5	0.00564
8890.6	0.00465
8900.6	0.0039
8911	0.00354
8921	0.00354
8931.8	0.00378
8942.1	0.00413
8953.3	0.00457
8964.3	0.00502
8975.7	0.00547
8986	0.00585
8996.1	0.00618
9006.8	0.00647
9017.1	0.00665
9027.7	0.00662
9038.7	0.00621
9048.9	0.00542
9059.5	0.0045
9069.9	0.00385
9080	0.0036
9090.9	0.00365
9101.7	0.00392
9111.7	0.00426
9122.3	0.00467
9133.5	0.00512
9144.1	0.00553
9155	0.00593
9165.4	0.00628
9176.2	0.0066
9186.5	0.0068
9196.8	0.00682
9207.8	0.00645
9218.6	0.00559
9229.5	0.00453
9240.2	0.0038
9250.5	0.00352
9260.7	0.00357
9270.9	0.00382
9281.6	0.0042
9293.9	0.00469
9305.1	0.00514
9315.7	0.00554
9326.8	0.00593
9337.7	0.00626
9348.6	0.00651
9358.9	0.00658
9369.5	0.00638
9380.3	0.00576
9390.9	0.00488
9401.2	0.00413
9411.6	0.00371
9422.3	0.00364
9432.4	0.0038
9443.8	0.00414
9454.8	0.00454
9465.6	0.00497
9475.6	0.00536
9486.7	0.00579
9496.8	0.00615
9507	0.00649
9517.6	0.00679
9527.9	0.00699
9538.7	0.00696
9549	0.00651
9559.6	0.00554
9569.7	0.00447
9579.7	0.00374
9590.1	0.00345
9600.5	0.00351
9611.2	0.00379
9621.8	0.00418
9633.9	0.00467
9645.3	0.00513
9656.3	0.00554
9666.8	0.00588
9677.7	0.00617
9688.1	0.00633
9698.9	0.00629
9709.1	0.00596
9720.1	0.00529
9730.9	0.00452
9741.5	0.00398
9751.8	0.00376
9762.8	0.00381
9773.5	0.00404
9784.5	0.00439
9796.5	0.00483
9807.8	0.00526
9818.8	0.00567
9829.6	0.00607
9840	0.00643
9850.5	0.00677
9860.7	0.00705
9871	0.00722
9881.3	0.00712
9891.7	0.00652
9901.8	0.00541
9912.4	0.00422
9922.7	0.00354
9932.8	0.00335
9943.6	0.0035
9954.7	0.00384
9966.1	0.00429
9977.4	0.00476
9989.1	0.00521
10000	0.00559
10011	0.00589
10023	0.00607
10034	0.00605
10045	0.00577
10056	0.00521
10066	0.00458
10077	0.00411
10087	0.0039
10098	0.00391
10109	0.00411
10120	0.00442
10132	0.00483
10144	0.00526
10154	0.00563
10165	0.00598
10175	0.00631
10186	0.0066
10196	0.0068
10207	0.00679
10218	0.00638
10229	0.0055
10239	0.00453
10249	0.00384
10259	0.00354
10270	0.00358
10280	0.00382
10291	0.00419
10303	0.00468
10314	0.00513
10324	0.00554
10335	0.00594
10346	0.00628
10356	0.00655
10366	0.00672
10377	0.00666
10387	0.00622
10398	0.00534
10408	0.00442
10418	0.0038
10429	0.00356
10440	0.00365
10451	0.00394
10462	0.00432
10473	0.00477
10484	0.00521
10495	0.00565
10505	0.00601
10516	0.00633
10526	0.00659
10536	0.00674
10547	0.00665
10557	0.00616
10568	0.00527
10578	0.00437
10588	0.00377
10599	0.00355
10609	0.00366
10620	0.00396
10631	0.00436
10643	0.00483
10654	0.00526
10665	0.00567
10676	0.00606
10686	0.00637
10696	0.00662
10706	0.00674
10716	0.0066
10727	0.00606
10737	0.00516
10747	0.00429
10757	0.00374
10768	0.00356
10778	0.00367
10789	0.00398
10800	0.00438
10813	0.00487
10823	0.00529
10834	0.00569
10845	0.00608
10856	0.00641
10866	0.00666
10877	0.00675
10887	0.00654
10897	0.00594
10908	0.00494
10919	0.00409
10930	0.00363
10940	0.00356
10950	0.00374
10961	0.00408
10972	0.00447
10982	0.00489
10992	0.0053
11003	0.0057
11014	0.00608
11025	0.00641
11035	0.00664
11045	0.00672
11056	0.00649
11066	0.00587
11076	0.00497
11087	0.00411
11097	0.00366
11107	0.00357
11118	0.00372
11128	0.00404
11140	0.00449
11151	0.00491
11161	0.00532
11171	0.00571
11182	0.00609
11193	0.00642
11204	0.00668
11214	0.00677
11224	0.00658
11234	0.006
11244	0.00509
11255	0.00417
11266	0.00366
11276	0.00355
11287	0.00371
11297	0.00403
11309	0.00448
11319	0.00489
11330	0.00531
11340	0.0057
11351	0.00608
11361	0.00638
11372	0.00661
11382	0.00669
11394	0.00644
11404	0.0058
11414	0.0049
11425	0.00407
11435	0.00366
11445	0.00358
11456	0.00376
11467	0.00411
11478	0.00452
11488	0.00494
11498	0.00535
11508	0.00573
11519	0.0061
11530	0.00644
11540	0.0067
11551	0.00682
11562	0.00663
11573	0.00596
11584	0.00496
11594	0.00408
11604	0.00361
11615	0.00353
11625	0.00371
11636	0.00405
11648	0.00451
11659	0.00494
11669	0.00535
11679	0.00573
11690	0.00609
11700	0.00638
11711	0.00658
11722	0.00658
11733	0.00621
11744	0.00543
11755	0.00452
11765	0.00387
11776	0.00363
11786	0.00367
11797	0.00392
11808	0.00432
11820	0.00476
11831	0.0052
11842	0.00564
11852	0.00601
11863	0.00638
11873	0.00668
11884	0.00691
11894	0.00694
11905	0.00661
11915	0.00577
11926	0.00468
11936	0.00385
11947	0.00349
11957	0.0035
11968	0.00375
11979	0.00416
11991	0.00464
12002	0.00509
12013	0.00552
12024	0.00587
12035	0.00617
12046	0.00638
12057	0.00638
12068	0.00605
12079	0.00537
12089	0.00458
12100	0.00399
12110	0.00374
12120	0.00375
12131	0.00395
12142	0.00432
12153	0.00472
12165	0.00516
12175	0.00556
12186	0.00595
12196	0.00631
12206	0.00665
12216	0.00697
12226	0.00718
12237	0.0072
12247	0.00681
12258	0.00578
12268	0.00458
12279	0.00369
12289	0.00336
12299	0.00342
12310	0.00372
12322	0.00416
12334	0.00465
12345	0.00511
12355	0.00546
12366	0.00578
12376	0.006
12387	0.00608
12398	0.00594
12410	0.00549
12420	0.00487
12431	0.00429
12441	0.00397
12452	0.00389
12462	0.00399
12473	0.00424
12484	0.0046
12496	0.005
12506	0.00537
12517	0.00575
12528	0.0061
12538	0.00643
12549	0.00669
12560	0.00681
12571	0.00666
12581	0.0061
12591	0.00519
12601	0.00423
12612	0.00367
12623	0.00353
12633	0.00367
12643	0.00396
12654	0.00437
12666	0.00486
12677	0.00529
12687	0.00569
12698	0.00607
12709	0.00641
12719	0.00667
12730	0.00676
12740	0.00658
12750	0.00599
12760	0.00508
12771	0.00417
12782	0.00366
12793	0.00355
12803	0.00372
12814	0.00404
12826	0.0045
12836	0.00492
12846	0.00533
12857	0.00571
12868	0.00609
12878	0.00639
12888	0.00662
12899	0.00669
12910	0.00643
12921	0.00569
12932	0.00472
12942	0.00397
12952	0.00362
12963	0.0036
12973	0.0038
12983	0.00412
12994	0.00454
13005	0.00497
13017	0.00544
13027	0.00583
13038	0.00621
13048	0.00652
13059	0.00675
13069	0.00682
13079	0.00658
13090	0.00588
13100	0.00488
13111	0.00403
13121	0.00359
13132	0.00353
13142	0.00373
13153	0.00409
13164	0.0045
13175	0.00493
13185	0.00534
13195	0.00572
13206	0.00609
13216	0.00638
13227	0.00658
13238	0.00658
13249	0.00619
13260	0.00542
13271	0.00451
13281	0.00387
13292	0.00363
13302	0.00368
13313	0.00393
13323	0.00427
13334	0.00468
13345	0.00513
13355	0.00554
13366	0.00594
13376	0.0063
13387	0.00662
13397	0.00687
13407	0.00697
13418	0.00676
13428	0.00608
13439	0.00497
13450	0.00401
13460	0.00353
13470	0.00347
13481	0.00367
13492	0.00402
13503	0.00448
13514	0.00491
13524	0.00532
13535	0.00571
13546	0.00603
13556	0.00628
13566	0.0064
13577	0.00628
13588	0.0058
13599	0.00503
13609	0.00432
13619	0.00387
13630	0.00372
13640	0.00381
13651	0.00408
13663	0.00448
13673	0.00486
13684	0.00529
13694	0.00569
13705	0.00608
13715	0.00644
13726	0.00678
13736	0.00706
13746	0.00723
13757	0.00712
