Time/s	Absorbance (460 nm)
10.165	0.00475
21.003	0.00515
31.634	0.0057
43.947	0.0064
54.762	0.00699
65.343	0.0075
75.417	0.00791
85.521	0.00818
96.607	0.00822
108.24	0.00777
119.25	0.00685
130.15	0.00586
140.93	0.00526
151.84	0.00512
162.02	0.00533
172.25	0.00573
183.26	0.00626
194.64	0.00685
206.01	0.00743
216.43	0.00795
226.51	0.00841
236.81	0.00882
247.35	0.00911
257.48	0.00909
268.38	0.00843
278.4	0.0071
289.05	0.00563
299.61	0.00482
310.21	0.0047
321.06	0.00502
332.41	0.00559
344.93	0.00629
355.62	0.00688
366.87	0.00744
377.4	0.00788
387.84	0.00817
399.2	0.00822
410.74	0.00779
421.46	0.00692
432	0.00595
442.36	0.00531
452.65	0.00512
463.1	0.00527
473.78	0.00567
486.02	0.00626
497.06	0.00683
508.56	0.00742
519.33	0.00795
529.53	0.00841
539.97	0.00883
550.67	0.00911
561.11	0.00907
571.99	0.00835
582.55	0.00691
592.84	0.00553
603.01	0.0048
613.31	0.0047
623.94	0.00502
635.06	0.00557
647.19	0.00626
657.85	0.00685
669.32	0.00742
679.95	0.00786
690.44	0.00817
701.76	0.00823
713.25	0.00781
724	0.00695
734.52	0.00597
744.83	0.00532
755	0.00512
765.27	0.00526
775.61	0.00562
787.09	0.00616
798.05	0.00673
808.73	0.00728
819.29	0.00781
830.05	0.00831
840.75	0.00875
851.47	0.00907
862.34	0.00911
873.16	0.00852
883.18	0.00725
893.6	0.00577
903.87	0.00489
913.94	0.00468
924.86	0.00494
935.03	0.00542
945.22	0.00598
955.46	0.00656
967.09	0.00718
977.79	0.00767
988.67	0.00805
999.28	0.00824
1009.3	0.00813
1020.6	0.0075
1031.3	0.00653
1042.1	0.00562
1052.2	0.00518
1062.7	0.00515
1072.8	0.0054
1083.4	0.00584
1095.1	0.00642
1105.6	0.00697
1116	0.0075
1126.3	0.008
1136.3	0.00846
1146.6	0.00886
1157.4	0.00913
1168.2	0.00903
1178.9	0.00822
1189.3	0.00676
1199.4	0.00544
1209.5	0.00478
1219.8	0.00472
1230.6	0.00506
1242.2	0.00565
1252.5	0.00624
1263.2	0.00683
1273.2	0.00734
1284.3	0.00781
1294.8	0.00814
1305.9	0.00824
1317.1	0.00792
1327.2	0.00719
1338.1	0.00616
1348.5	0.00542
1358.6	0.00513
1369.6	0.00522
1381	0.00561
1392.2	0.00613
1403.1	0.00669
1414	0.00726
1424.7	0.00779
1435.6	0.0083
1446.3	0.00874
1457	0.00907
1467.8	0.00912
1478.6	0.00855
1488.7	0.00728
1499.1	0.00579
1509.4	0.0049
1519.4	0.00468
1530.3	0.00493
1540.3	0.00539
1552.5	0.00607
1563	0.00666
1574	0.00724
1584.4	0.0077
1595.2	0.00808
1605.9	0.00825
1616.2	0.00809
1627.2	0.00743
1637.7	0.00646
1648.5	0.00558
1658.6	0.00517
1669.1	0.00516
1679.4	0.00543
1690.3	0.0059
1702.7	0.00652
1712.8	0.00705
1723.9	0.00761
1734.6	0.00813
1745	0.00858
1755.2	0.00895
1765.3	0.00915
1775.7	0.00895
1786.2	0.00803
1796.3	0.00657
1806.4	0.00532
1816.4	0.00474
1826.9	0.00474
1837	0.00509
1847.3	0.00562
1857.3	0.00618
1868	0.00678
1878.3	0.00731
1889.6	0.00779
1900.2	0.00813
1911.1	0.00824
1922.2	0.00795
1932.4	0.00723
1942.5	0.00628
1953	0.00548
1963.1	0.00514
1973.9	0.00519
1984.7	0.00552
1994.9	0.00598
2005	0.00649
2015.3	0.00703
2026.5	0.0076
2037.3	0.00812
2047.8	0.00858
2057.9	0.00894
2068	0.00915
2078.4	0.00896
2088.9	0.00805
2099.1	0.00659
2109.1	0.00533
2119.1	0.00475
2129.6	0.00474
2139.7	0.00508
2149.9	0.0056
2162.3	0.0063
2172.9	0.00688
2184.1	0.00744
2194.6	0.00788
2205.1	0.00817
2216.5	0.00822
2228.1	0.00779
2238.7	0.00692
2249.1	0.00595
2259.4	0.00532
2269.6	0.00512
2279.9	0.00526
2290.3	0.00564
2301.9	0.00619
2312.9	0.00676
2323.4	0.0073
2333.8	0.00782
2344.6	0.00832
2355.3	0.00876
2366	0.00908
2376.9	0.00911
2387.7	0.0085
2398.5	0.0071
2408.8	0.00566
2419	0.00485
2429.1	0.00469
2439.3	0.00495
2449.5	0.00543
2459.8	0.006
2470.1	0.00658
2481.6	0.00719
2492.3	0.00767
2503.1	0.00806
2513.8	0.00824
2523.9	0.00812
2535.1	0.00749
2545.7	0.00651
2556.6	0.00562
2566.7	0.00518
2577.2	0.00515
2587.3	0.00541
2597.9	0.00585
2609.7	0.00644
2620.2	0.00698
2630.4	0.00751
2640.7	0.00801
2650.7	0.00846
2661.1	0.00886
2671.8	0.00913
2682.6	0.00903
2693.4	0.00821
2703.7	0.00675
2713.8	0.00543
2723.9	0.00477
2734.2	0.00472
2745	0.00506
2755	0.00557
2767	0.00624
2777.7	0.00683
2789.2	0.00741
2799.9	0.00786
2810.4	0.00816
2821.7	0.00823
2833.2	0.00782
2844	0.00696
2854.5	0.00598
2864.8	0.00533
2874.9	0.00512
2885.2	0.00525
2895.4	0.00561
2906.7	0.00614
2917.6	0.0067
2928.5	0.00727
2939.2	0.0078
2950	0.0083
2960.7	0.00875
2971.4	0.00907
2982.2	0.00912
2993.1	0.00854
3003.1	0.00727
3013.5	0.00579
3023.8	0.0049
3033.8	0.00468
3044.7	0.00493
3054.8	0.0054
3066.9	0.00608
3077.5	0.00667
3088.5	0.00724
3098.8	0.00771
3109.6	0.00808
3120.3	0.00825
3130.6	0.00808
3141.7	0.00742
3152.1	0.00645
3162.9	0.00558
3173	0.00517
3183.5	0.00516
3193.8	0.00543
3204.8	0.00591
3217.2	0.00653
3227.2	0.00705
3238.3	0.00761
3249	0.00813
3259.4	0.00859
3269.6	0.00895
3279.7	0.00915
3290.1	0.00895
3300.6	0.00802
3310.7	0.00656
3320.8	0.00532
3331.5	0.00473
3342.1	0.00476
3352.5	0.00514
3363.4	0.00571
3374.4	0.00634
3384.9	0.00691
3395.9	0.00746
3406.4	0.00789
3416.9	0.00818
3426.9	0.00823
3438.3	0.00786
3449.3	0.007
3459.8	0.00601
3470.2	0.00534
3480.3	0.00512
3490.5	0.00524
3500.6	0.00559
3511.5	0.0061
3522.3	0.00665
3533.6	0.00723
3544.5	0.00778
3555.4	0.00829
3566.1	0.00874
3576.9	0.00907
3587.6	0.00912
3598.4	0.00858
3608.5	0.00732
3619	0.00582
3629.3	0.00491
3639.3	0.00468
3650.1	0.00492
3661.3	0.00544
3671.8	0.00603
3682.2	0.00661
3693.5	0.00721
3704.1	0.00769
3714.9	0.00806
3725.5	0.00824
3735.7	0.00811
3746.9	0.00746
3757.5	0.00649
3768.3	0.0056
3778.4	0.00517
3788.9	0.00515
3799.1	0.00542
3809.8	0.00587
3821.8	0.00647
3832.2	0.00701
3842.2	0.00752
3852.4	0.00802
3863.2	0.0085
3873.5	0.00889
3884.3	0.00914
3894.3	0.00902
3905.1	0.00818
3915.3	0.00673
3925.5	0.00542
3935.5	0.00477
3945.9	0.00472
3956.7	0.00507
3966.8	0.00559
3979.1	0.00628
3989.7	0.00686
4001.1	0.00743
4011.7	0.00787
4022.1	0.00817
4033.5	0.00822
4045	0.0078
4055.7	0.00693
4066.2	0.00596
4076.5	0.00532
4086.6	0.00512
4096.9	0.00526
4107.3	0.00563
4118.8	0.00617
4129.7	0.00674
4140.4	0.00729
4150.9	0.00781
4161.6	0.00831
4172.3	0.00875
4183.1	0.00908
4193.9	0.00911
4204.8	0.00852
4215.6	0.00712
4225.9	0.00567
4236.1	0.00486
4246.2	0.00469
4256.4	0.00494
4266.5	0.00541
4276.7	0.00598
4286.9	0.00655
4298.5	0.00717
4309.3	0.00766
4320.2	0.00805
4330.8	0.00824
4340.8	0.00813
4352.1	0.00751
4362.8	0.00653
4373.6	0.00562
4383.7	0.00518
4394.2	0.00514
4404.3	0.0054
4414.8	0.00584
4426.4	0.00642
4437	0.00697
4447.4	0.0075
4457.8	0.008
4467.8	0.00845
4478.2	0.00886
4488.9	0.00913
4499.6	0.00903
4510.4	0.00823
4520.8	0.00678
4530.9	0.00545
4541	0.00478
4551.3	0.00471
4562	0.00506
4573.5	0.00564
4583.8	0.00622
4594.5	0.00681
4604.6	0.00733
4615.7	0.00781
4626.3	0.00813
4637.3	0.00824
4648.5	0.00793
4658.6	0.0072
4669.6	0.00617
4680	0.00542
4690.1	0.00513
4701.1	0.00522
4712.4	0.0056
4723.5	0.00612
4734.4	0.00668
4745.4	0.00725
4756.2	0.00779
4767	0.0083
4777.8	0.00874
4788.5	0.00907
4799.3	0.00912
4810.1	0.00856
4820.2	0.0073
4830.6	0.0058
4840.9	0.0049
4850.9	0.00468
4861.7	0.00492
4873.1	0.00546
4883.7	0.00605
4894.2	0.00664
4905.4	0.00723
4915.8	0.0077
4926.6	0.00807
4937.3	0.00824
4947.6	0.00809
4958.6	0.00744
4969.1	0.00647
4979.9	0.00559
4990	0.00517
5000.6	0.00515
5010.8	0.00543
5021.7	0.00589
5033.9	0.0065
5044.1	0.00704
5055.3	0.0076
5066	0.00812
5076.5	0.00858
5086.6	0.00895
5096.7	0.00915
5107.1	0.00896
5117.6	0.00805
5127.8	0.00658
5137.8	0.00533
5147.8	0.00474
5158.3	0.00474
5168.4	0.00508
5178.6	0.0056
5191.1	0.00631
5201.6	0.00689
5212.8	0.00744
5223.4	0.00788
5233.9	0.00817
5243.9	0.00823
5255.2	0.00788
5266.3	0.00702
5276.9	0.00603
5287.2	0.00535
5297.4	0.00512
5307.5	0.00523
5317.5	0.00558
5328.3	0.00607
5339	0.00662
5350.5	0.00722
5361.5	0.00777
5371.5	0.00824
5381.6	0.00867
5391.6	0.00901
5402	0.00915
5412.1	0.00885
5422.1	0.00783
5432.9	0.00626
5443.5	0.0051
5454.1	0.00469
5464.4	0.00482
5474.4	0.00523
5484.6	0.00577
5496.1	0.00643
5506.3	0.00698
5516.9	0.0075
5527.2	0.00791
5537.7	0.00819
5547.9	0.00822
5559.4	0.0078
5570.1	0.00693
5580.5	0.00596
5590.8	0.00532
5601	0.00512
5611.3	0.00526
5621.6	0.00563
5633.1	0.00617
5644.1	0.00674
5654.7	0.00729
5665.2	0.00781
5676	0.00831
5686.7	0.00875
5697.4	0.00908
5708.3	0.00911
5719.1	0.00852
5729.9	0.00712
5740.3	0.00568
5750.5	0.00486
5760.6	0.00469
5770.7	0.00494
5780.9	0.00541
5791	0.00597
5801.2	0.00655
5812.9	0.00717
5823.6	0.00766
5834.5	0.00805
5845.1	0.00824
5855.1	0.00813
5866.4	0.0075
5877.1	0.00653
5888	0.00562
5898.1	0.00518
5908.6	0.00514
5918.7	0.0054
5929.2	0.00584
5940.8	0.00642
5951.4	0.00697
5961.8	0.0075
5972.1	0.008
5982.1	0.00845
5992.5	0.00886
6003.2	0.00913
6014	0.00903
6024.8	0.00823
6035.1	0.00678
6045.3	0.00545
6055.3	0.00478
6065.6	0.00471
6076.4	0.00505
6087.9	0.00564
6098.1	0.00622
6108.8	0.00681
6118.9	0.00732
6130	0.00781
6140.6	0.00813
6151.6	0.00824
6162.8	0.00793
6172.9	0.0072
6183.9	0.00617
6194.4	0.00542
6204.5	0.00513
6215.4	0.00522
6226.7	0.0056
6237.9	0.00612
6248.7	0.00668
6259.8	0.00725
6270.5	0.00779
6281.4	0.0083
6292.1	0.00874
6302.8	0.00907
6313.6	0.00912
6324.4	0.00856
6334.5	0.0073
6344.9	0.0058
6355.2	0.0049
6365.2	0.00468
6376.1	0.00492
6387.4	0.00546
6398	0.00605
6408.5	0.00664
6419.7	0.00722
6430.1	0.0077
6440.9	0.00807
6451.6	0.00824
6461.9	0.00809
6473	0.00744
6483.5	0.00647
6494.3	0.00559
6504.4	0.00517
6514.9	0.00515
6525.2	0.00543
6536	0.00589
6548.2	0.0065
6558.4	0.00703
6569.6	0.0076
6580.4	0.00812
6590.8	0.00858
6601	0.00895
6611.1	0.00915
6621.5	0.00896
6632	0.00805
6642.1	0.00658
6652.2	0.00533
6662.2	0.00475
6672.6	0.00474
6682.7	0.00508
6693	0.0056
6705.4	0.0063
6715.9	0.00689
6727.2	0.00744
6737.7	0.00788
6748.2	0.00817
6758.2	0.00823
6769.5	0.00788
6780.6	0.00702
6791.2	0.00603
6801.5	0.00535
6811.7	0.00512
6821.8	0.00523
6831.9	0.00558
6842.7	0.00607
6853.3	0.00662
6864.8	0.00721
6875.8	0.00777
6885.8	0.00824
6896	0.00867
6906	0.00901
6916.3	0.00915
6926.4	0.00885
6936.5	0.00784
6947.2	0.00626
6957.8	0.0051
6968.5	0.00469
6978.7	0.00482
6988.7	0.00523
6998.8	0.00577
7010.4	0.00643
7020.6	0.00698
7031.2	0.0075
7041.5	0.00791
7052	0.00819
7062.2	0.00822
7073.7	0.0078
7084.4	0.00693
7094.9	0.00597
7105.1	0.00532
7115.3	0.00512
7125.6	0.00526
7135.9	0.00562
7147.4	0.00617
7158.4	0.00673
7169	0.00728
7179.6	0.00781
7190.3	0.00831
7201	0.00875
7211.7	0.00908
7222.6	0.00911
7233.4	0.00852
7243.4	0.00725
7253.8	0.00577
7264.1	0.00489
7274.1	0.00468
7285	0.00494
7295.2	0.00541
7305.3	0.00597
7315.4	0.00655
7327.2	0.00717
7337.9	0.00766
7348.8	0.00805
7359.4	0.00824
7369.4	0.00813
7380.7	0.00751
7391.4	0.00653
7402.3	0.00563
7412.4	0.00518
7422.9	0.00514
7433	0.0054
7443.5	0.00583
7455.1	0.00641
7465.7	0.00696
7476.1	0.0075
7486.4	0.008
7496.5	0.00845
7506.8	0.00886
7517.6	0.00913
7528.3	0.00903
7539.1	0.00823
7549.4	0.00678
7559.6	0.00545
7569.6	0.00478
7579.9	0.00471
7590.7	0.00505
7602.2	0.00563
7612.3	0.00621
7623	0.0068
7633.2	0.00732
7644.3	0.0078
7654.9	0.00813
7665.9	0.00824
7677.1	0.00793
7687.2	0.0072
7698.2	0.00617
7708.7	0.00542
7718.8	0.00513
7729.7	0.00522
7741	0.0056
7752.1	0.00612
7763	0.00668
7774.1	0.00725
7784.8	0.00779
7795.7	0.00829
7806.4	0.00874
7817.1	0.00907
7827.9	0.00912
7838.7	0.00856
7848.8	0.0073
7859.2	0.00581
7869.5	0.0049
7879.6	0.00468
7890.4	0.00492
7901.7	0.00545
7912.3	0.00605
7922.8	0.00663
7934	0.00722
7944.4	0.00769
7955.2	0.00807
7965.9	0.00824
7976.2	0.0081
7987.2	0.00744
7997.8	0.00647
8008.6	0.00559
8018.7	0.00517
8029.2	0.00515
8039.4	0.00542
8050.3	0.00589
8062.5	0.0065
8072.7	0.00703
8083.9	0.0076
8094.7	0.00812
8105.2	0.00858
8115.3	0.00895
8125.4	0.00915
8135.8	0.00896
8146.3	0.00805
8156.4	0.00659
8166.5	0.00533
8176.5	0.00475
8186.9	0.00474
8197	0.00508
8207.2	0.0056
8219.6	0.0063
8230.2	0.00688
8241.4	0.00744
8252	0.00787
8262.5	0.00817
8273.9	0.00822
8285.4	0.00778
8296	0.00691
8306.5	0.00595
8316.8	0.00531
8326.9	0.00511
8337.2	0.00526
8347.6	0.00564
8359.3	0.00619
8370.3	0.00676
8380.8	0.0073
8391.2	0.00782
8401.9	0.00832
8412.6	0.00876
8423.3	0.00908
8434.2	0.00911
8445.1	0.0085
8455.9	0.0071
8466.2	0.00566
8476.4	0.00485
8486.5	0.00469
8496.7	0.00494
8506.9	0.00542
8517.1	0.00599
8527.4	0.00657
8538.9	0.00718
8549.6	0.00767
8560.5	0.00806
8571.1	0.00824
8581.2	0.00812
8592.4	0.00749
8603.1	0.00652
8613.9	0.00562
8624	0.00518
8634.5	0.00515
8644.6	0.0054
8655.2	0.00585
8667	0.00644
8677.5	0.00698
8687.8	0.00751
8698.1	0.00801
8708.1	0.00846
8718.4	0.00886
8729.2	0.00913
8739.9	0.00903
8750.7	0.00821
8761	0.00676
8771.2	0.00544
8781.2	0.00478
8791.5	0.00471
8802.3	0.00506
8813.9	0.00565
8824.2	0.00623
8834.9	0.00683
8844.9	0.00733
8856	0.00781
8866.6	0.00814
8877.6	0.00824
8888.8	0.00792
8898.9	0.00718
8909.8	0.00616
8920.3	0.00541
8930.4	0.00513
8941.4	0.00522
8952.7	0.00561
8964	0.00614
8974.9	0.0067
8985.8	0.00726
8996.5	0.0078
9007.3	0.0083
9018	0.00875
9028.7	0.00907
9039.6	0.00912
9050.4	0.00855
9060.4	0.00728
9070.8	0.00579
9081.1	0.0049
9091.2	0.00468
9102	0.00493
9112	0.00539
9124.1	0.00607
9134.6	0.00666
9145.7	0.00723
9156.1	0.0077
9166.9	0.00807
9177.6	0.00824
9187.9	0.00809
9198.9	0.00743
9209.4	0.00646
9220.2	0.00558
9230.3	0.00517
9240.8	0.00516
9251.1	0.00543
9262.1	0.0059
9274.4	0.00652
9284.5	0.00705
9295.6	0.00761
9306.3	0.00813
9316.8	0.00858
9326.9	0.00895
9337	0.00915
9347.4	0.00895
9357.9	0.00803
9368	0.00657
9378.1	0.00532
9388.8	0.00473
9399.3	0.00476
9409.8	0.00514
9420.6	0.0057
9431.5	0.00632
9442	0.0069
9453.1	0.00745
9463.6	0.00788
9474.1	0.00817
9484.2	0.00823
9495.5	0.00787
9506.5	0.00701
9517.1	0.00602
9527.5	0.00535
9537.6	0.00512
9547.8	0.00524
9557.8	0.00558
9568.7	0.00609
9579.5	0.00664
9590.8	0.00723
9601.8	0.00777
9611.8	0.00824
9621.9	0.00867
9631.9	0.00901
9642.2	0.00915
9652.3	0.00884
9662.4	0.00782
9673.1	0.00625
9683.7	0.00509
9694.4	0.00469
9704.6	0.00482
9714.7	0.00524
9724.9	0.00578
9736.5	0.00644
9746.7	0.00699
9757.2	0.0075
9767.5	0.00791
9777.9	0.00819
9788.2	0.00822
9799.7	0.00779
9810.3	0.00692
9820.8	0.00596
9831.1	0.00532
9841.2	0.00511
9851.5	0.00526
9861.9	0.00563
9873.5	0.00618
9884.5	0.00675
9895	0.00729
9905.5	0.00782
9916.2	0.00832
9926.9	0.00876
9937.6	0.00908
9948.5	0.00911
9959.3	0.00851
9970.1	0.00711
9980.5	0.00567
9990.7	0.00485
10001	0.00469
10011	0.00494
10021	0.00542
10031	0.00598
10042	0.00656
10053	0.00718
10064	0.00767
10075	0.00805
10085	0.00824
10095	0.00812
10107	0.0075
10117	0.00652
10128	0.00562
10138	0.00518
10149	0.00515
10159	0.0054
10169	0.00584
10181	0.00643
10192	0.00698
10202	0.0075
10212	0.00801
10222	0.00846
10233	0.00886
10243	0.00913
10254	0.00903
10265	0.00822
10275	0.00677
10285	0.00544
10296	0.00478
10306	0.00471
10317	0.00506
10328	0.00564
10338	0.00623
10349	0.00682
10359	0.00733
10370	0.00781
10381	0.00813
10392	0.00824
10403	0.00792
10413	0.00719
10424	0.00616
10435	0.00542
10445	0.00513
10456	0.00522
10467	0.0056
10478	0.00613
10489	0.00669
10500	0.00726
10511	0.00779
10522	0.0083
10532	0.00874
10543	0.00907
10554	0.00912
10565	0.00855
10575	0.00729
10585	0.0058
10595	0.0049
10605	0.00468
10616	0.00493
10626	0.00539
10638	0.00606
10649	0.00665
10660	0.00723
10670	0.0077
10681	0.00807
10692	0.00824
10702	0.00809
10713	0.00743
10724	0.00646
10734	0.00559
10745	0.00517
10755	0.00515
10765	0.00543
10776	0.00589
10789	0.00651
10799	0.00704
10810	0.00761
10821	0.00812
10831	0.00858
10841	0.00895
10851	0.00915
10862	0.00896
10872	0.00804
10882	0.00658
10892	0.00533
10902	0.00474
10913	0.00474
10923	0.00508
10933	0.0056
10946	0.00631
10956	0.00689
10967	0.00744
10978	0.00788
10988	0.00817
10998	0.00823
11010	0.00787
11021	0.00701
11031	0.00603
11042	0.00535
11052	0.00512
11062	0.00524
11072	0.00558
11083	0.00608
11094	0.00663
11105	0.00722
11116	0.00777
11126	0.00824
11136	0.00867
11146	0.00901
11156	0.00915
11167	0.00885
11177	0.00783
11187	0.00626
11198	0.0051
11209	0.00469
11219	0.00482
11229	0.00523
11239	0.00577
11251	0.00643
11261	0.00698
11271	0.0075
11282	0.00791
11292	0.00819
11302	0.00822
11314	0.0078
11325	0.00693
11335	0.00596
11345	0.00532
11355	0.00512
11366	0.00526
11376	0.00563
11388	0.00617
11399	0.00674
11409	0.00729
11420	0.00781
11430	0.00831
11441	0.00875
11452	0.00908
11463	0.00911
11474	0.00852
11484	0.00712
11495	0.00567
11505	0.00486
11515	0.00469
11525	0.00494
11535	0.00541
11545	0.00597
11556	0.00655
11567	0.00717
11578	0.00766
11589	0.00805
11600	0.00824
11610	0.00813
11621	0.0075
11632	0.00653
11642	0.00562
11653	0.00518
11663	0.00514
11673	0.0054
11684	0.00584
11695	0.00642
11706	0.00697
11716	0.0075
11727	0.008
11737	0.00845
11747	0.00886
11758	0.00913
11768	0.00903
11779	0.00823
11790	0.00678
11800	0.00545
11810	0.00478
11820	0.00471
11831	0.00505
11842	0.00564
11853	0.00621
11863	0.00681
11873	0.00732
11884	0.0078
11895	0.00813
11906	0.00824
11917	0.00793
11927	0.0072
11938	0.00617
11949	0.00542
11959	0.00513
11970	0.00522
11981	0.0056
11992	0.00612
12003	0.00668
12014	0.00725
12025	0.00779
12036	0.0083
12047	0.00874
12057	0.00907
12068	0.00912
12079	0.00856
12089	0.0073
12099	0.00581
12110	0.0049
12120	0.00468
12131	0.00492
12142	0.00545
12152	0.00605
12163	0.00663
12174	0.00722
12185	0.00769
12195	0.00807
12206	0.00824
12216	0.0081
12227	0.00744
12238	0.00647
12249	0.00559
12259	0.00517
12269	0.00515
12280	0.00542
12290	0.00589
12303	0.0065
12313	0.00703
12324	0.0076
12335	0.00812
12345	0.00858
12355	0.00895
12366	0.00915
12376	0.00896
12386	0.00805
12397	0.00659
12407	0.00533
12417	0.00475
12427	0.00474
12437	0.00508
12447	0.0056
12460	0.0063
12470	0.00688
12482	0.00744
12492	0.00787
12503	0.00817
12514	0.00822
12526	0.00778
12536	0.00691
12547	0.00595
12557	0.00531
12567	0.00511
12577	0.00526
12588	0.00564
12599	0.00619
12610	0.00676
12621	0.0073
12631	0.00782
12642	0.00832
12653	0.00876
12663	0.00908
12674	0.00911
12685	0.00851
12696	0.00711
12706	0.00566
12717	0.00485
12727	0.00469
12737	0.00494
12747	0.00542
12757	0.00599
12767	0.00657
12779	0.00718
12790	0.00767
12801	0.00805
12811	0.00824
12821	0.00812
12833	0.00749
12843	0.00652
12854	0.00562
12864	0.00518
12875	0.00515
12885	0.0054
12895	0.00585
12907	0.00644
12918	0.00698
12928	0.00751
12938	0.00801
12948	0.00846
12959	0.00886
12969	0.00913
12980	0.00903
12991	0.00821
13001	0.00676
13011	0.00544
13021	0.00478
13032	0.00471
13042	0.00506
13054	0.00565
13064	0.00623
13075	0.00682
13085	0.00733
13096	0.00781
13107	0.00814
13118	0.00824
13129	0.00792
13139	0.00718
13150	0.00616
13160	0.00542
13171	0.00513
13182	0.00522
13193	0.00561
13204	0.00614
13215	0.0067
13226	0.00726
13237	0.0078
13247	0.0083
13258	0.00874
13269	0.00907
13280	0.00912
13290	0.00855
13301	0.00728
13311	0.00579
13321	0.0049
13331	0.00468
13342	0.00493
13352	0.00539
13364	0.00606
13375	0.00665
13386	0.00723
13396	0.0077
13407	0.00807
13418	0.00824
13428	0.00809
13439	0.00743
13450	0.00646
13460	0.00558
13470	0.00517
13481	0.00516
13491	0.00543
13502	0.0059
13514	0.00652
13525	0.00705
13536	0.00761
13546	0.00812
13557	0.00858
13567	0.00895
13577	0.00915
13588	0.00896
13598	0.00804
13608	0.00657
13618	0.00532
13629	0.00473
13639	0.00476
13650	0.00513
13661	0.0057
13672	0.00632
